#             2 H   1 
#                 +      
#             0 OOOOO
#                 =      
#             0 OOOOO
#                 +      
#             1 HE  2 
#
#Qrad(MeV)       1.172
#Qnu (MeV)       0.270
#Type/Ne(cm-3)      --
#
#       T8
#
     0.0100  .9999E-99
     0.0110  .9999E-99
     0.0120  .9999E-99
     0.0132  .9999E-99
     0.0145  .9999E-99
     0.0159  .9999E-99
     0.0175  .9999E-99
     0.0192  .9999E-99
     0.0210  .8318E-24
     0.0231  .1581E-23
     0.0254  .3200E-23
     0.0278  .6937E-23
     0.0305  .1523E-22
     0.0335  .2731E-22
     0.0368  .5187E-22
     0.0404  .1026E-21
     0.0443  .1771E-21
     0.0486  .3224E-21
     0.0534  .5546E-21
     0.0586  .9558E-21
     0.0643  .1590E-20
     0.0705  .2669E-20
     0.0774  .4282E-20
     0.0850  .6809E-20
     0.0933  .1069E-19
     0.1024  .1650E-19
     0.1123  .2514E-19
     0.1233  .3770E-19
     0.1353  .5577E-19
     0.1485  .8161E-19
     0.1630  .1175E-18
     0.1789  .1668E-18
     0.1963  .2346E-18
     0.2154  .3191E-18
     0.2364  .4398E-18
     0.2595  .6040E-18
     0.2848  .8099E-18
     0.3126  .1074E-17
     0.3430  .1387E-17
     0.3765  .1838E-17
     0.4132  .2423E-17
     0.4535  .3079E-17
     0.4977  .4005E-17
     0.5462  .5003E-17
     0.5995  .6365E-17
     0.6579  .7862E-17
     0.7221  .9768E-17
     0.7925  .1203E-16
     0.8697  .1471E-16
     0.9545  .1792E-16
     1.0476  .2170E-16
     1.1498  .2614E-16
     1.2619  .3132E-16
     1.3849  .3740E-16
     1.5199  .4444E-16
     1.6681  .5255E-16
     1.8307  .6215E-16
     2.0092  .7321E-16
     2.2051  .8486E-16
     2.4201  .9980E-16
     2.6561  .1166E-15
     2.9151  .1367E-15
     3.1993  .1595E-15
     3.5112  .1869E-15
     3.8535  .2168E-15
     4.2292  .2523E-15
     4.6416  .2938E-15
     5.0941  .3414E-15
     5.5908  .3958E-15
     6.1359  .4625E-15
     6.7342  .5371E-15
     7.3907  .6254E-15
     8.1113  .7306E-15
     8.9022  .8517E-15
     9.7701  .9903E-15
    10.7227  .1148E-14
    11.7681  .1344E-14
    12.9155  .1577E-14
    14.1747  .1837E-14
    15.5568  .2152E-14
    17.0735  .2524E-14
    18.7382  .2953E-14
    20.5651  .3454E-14
    22.5702  .4020E-14
    24.7708  .4747E-14
    27.1859  .5533E-14
    29.8365  .6523E-14
    32.7455  .7608E-14
    35.9381  .8926E-14
    39.4421  .1044E-13
    43.2876  .1214E-13
    47.5081  .1427E-13
    52.1401  .1676E-13
    57.2237  .1957E-13
    62.8029  .2290E-13
    68.9261  .2684E-13
    75.6463  .3136E-13
    83.0218  .3671E-13
    91.1163  .4293E-13
   100.0000  .5010E-13
#
#             1 H   2 
#                 +      
#             1 PROT 
#                 =      
#             0 OOOOO
#                 +      
#             1 HE  3 
#
#Qrad(MeV)       5.494
#Qnu (MeV)       0.000
#Type/Ne(cm-3)      --
#
#       T8
#
     0.0100  .1770E-10
     0.0110  .3580E-10
     0.0120  .7756E-10
     0.0132  .1812E-09
     0.0145  .4597E-09
     0.0159  .1277E-08
     0.0175  .3921E-08
     0.0192  .1343E-07
     0.0210  .3499E-07
     0.0231  .7140E-07
     0.0254  .1562E-06
     0.0278  .3687E-06
     0.0305  .8827E-06
     0.0335  .1688E-05
     0.0368  .3440E-05
     0.0404  .7337E-05
     0.0443  .1346E-04
     0.0486  .2621E-04
     0.0534  .4814E-04
     0.0586  .8875E-04
     0.0643  .1563E-03
     0.0705  .2774E-03
     0.0774  .4697E-03
     0.0850  .7884E-03
     0.0933  .1309E-02
     0.1024  .2139E-02
     0.1123  .3416E-02
     0.1233  .5385E-02
     0.1353  .8359E-02
     0.1485  .1279E-01
     0.1630  .1929E-01
     0.1789  .2877E-01
     0.1963  .4218E-01
     0.2154  .5977E-01
     0.2364  .8612E-01
     0.2595  .1235E+00
     0.2848  .1721E+00
     0.3126  .2369E+00
     0.3430  .3171E+00
     0.3765  .4368E+00
     0.4132  .5984E+00
     0.4535  .7871E+00
     0.4977  .1063E+01
     0.5462  .1371E+01
     0.5995  .1805E+01
     0.6579  .2306E+01
     0.7221  .2965E+01
     0.7925  .3772E+01
     0.8697  .4736E+01
     0.9545  .5931E+01
     1.0476  .7382E+01
     1.1498  .9140E+01
     1.2619  .1124E+02
     1.3849  .1368E+02
     1.5199  .1663E+02
     1.6681  .2004E+02
     1.8307  .2415E+02
     2.0092  .2892E+02
     2.2051  .3401E+02
     2.4201  .4063E+02
     2.6561  .4797E+02
     2.9151  .5663E+02
     3.1993  .6628E+02
     3.5112  .7778E+02
     3.8535  .9026E+02
     4.2292  .1048E+03
     4.6416  .1213E+03
     5.0941  .1396E+03
     5.5908  .1600E+03
     6.1359  .1844E+03
     6.7342  .2103E+03
     7.3907  .2400E+03
     8.1113  .2739E+03
     8.9022  .3111E+03
     9.7701  .3524E+03
    10.7227  .3960E+03
    11.7681  .4472E+03
    12.9155  .5060E+03
    14.1747  .5682E+03
    15.5568  .6394E+03
    17.0735  .7174E+03
    18.7382  .8028E+03
    20.5651  .8979E+03
    22.5702  .1000E+04
    24.7708  .1126E+04
    27.1859  .1247E+04
    29.8365  .1391E+04
    32.7455  .1547E+04
    35.9381  .1728E+04
    39.4421  .1918E+04
    43.2876  .2116E+04
    47.5081  .2350E+04
    52.1401  .2609E+04
    57.2237  .2886E+04
    62.8029  .3195E+04
    68.9261  .3536E+04
    75.6463  .3901E+04
    83.0218  .4306E+04
    91.1163  .4747E+04
   100.0000  .5230E+04
#
#             2 H   2 
#                 +      
#             0 OOOOO
#                 =      
#             1 PROT 
#                 +      
#             1 H   3 
#
#Qrad(MeV)       4.033
#Qnu (MeV)       0.000
#Type/Ne(cm-3)      --
#
#       T8
#
     0.0100  .1470E-07
     0.0110  .3311E-07
     0.0120  .8074E-07
     0.0132  .2147E-06
     0.0145  .6282E-06
     0.0159  .2041E-05
     0.0175  .7436E-05
     0.0192  .3074E-04
     0.0210  .9272E-04
     0.0231  .2110E-03
     0.0254  .5205E-03
     0.0278  .1402E-02
     0.0305  .3835E-02
     0.0335  .8102E-02
     0.0368  .1841E-01
     0.0404  .4411E-01
     0.0443  .8875E-01
     0.0486  .1912E+00
     0.0534  .3845E+00
     0.0586  .7766E+00
     0.0643  .1492E+01
     0.0705  .2897E+01
     0.0774  .5309E+01
     0.0850  .9638E+01
     0.0933  .1726E+02
     0.1024  .3031E+02
     0.1123  .5193E+02
     0.1233  .8734E+02
     0.1353  .1444E+03
     0.1485  .2359E+03
     0.1630  .3759E+03
     0.1789  .5942E+03
     0.1963  .9212E+03
     0.2154  .1367E+04
     0.2364  .2063E+04
     0.2595  .3100E+04
     0.2848  .4520E+04
     0.3126  .6490E+04
     0.3430  .9003E+04
     0.3765  .1290E+05
     0.4132  .1835E+05
     0.4535  .2489E+05
     0.4977  .3479E+05
     0.5462  .4611E+05
     0.5995  .6252E+05
     0.6579  .8150E+05
     0.7221  .1070E+06
     0.7925  .1391E+06
     0.8697  .1775E+06
     0.9545  .2257E+06
     1.0476  .2850E+06
     1.1498  .3565E+06
     1.2619  .4422E+06
     1.3849  .5452E+06
     1.5199  .6657E+06
     1.6681  .8048E+06
     1.8307  .9726E+06
     2.0092  .1169E+07
     2.2051  .1370E+07
     2.4201  .1631E+07
     2.6561  .1914E+07
     2.9151  .2241E+07
     3.1993  .2604E+07
     3.5112  .3034E+07
     3.8535  .3480E+07
     4.2292  .3992E+07
     4.6416  .4565E+07
     5.0941  .5186E+07
     5.5908  .5845E+07
     6.1359  .6621E+07
     6.7342  .7430E+07
     7.3907  .8322E+07
     8.1113  .9309E+07
     8.9022  .1036E+08
     9.7701  .1149E+08
    10.7227  .1262E+08
    11.7681  .1392E+08
    12.9155  .1536E+08
    14.1747  .1685E+08
    15.5568  .1849E+08
    17.0735  .2019E+08
    18.7382  .2204E+08
    20.5651  .2402E+08
    22.5702  .2595E+08
    24.7708  .2825E+08
    27.1859  .3047E+08
    29.8365  .3303E+08
    32.7455  .3550E+08
    35.9381  .3824E+08
    39.4421  .4112E+08
    43.2876  .4387E+08
    47.5081  .4697E+08
    52.1401  .5020E+08
    57.2237  .5344E+08
    62.8029  .5684E+08
    68.9261  .6036E+08
    75.6463  .6383E+08
    83.0218  .6743E+08
    91.1163  .7103E+08
   100.0000  .7450E+08
#
#             2 H   2 
#                 +      
#             0 OOOOO
#                 =      
#             1 NEUT 
#                 +      
#             1 HE  3 
#
#Qrad(MeV)       3.270
#Qnu (MeV)       0.000
#Type/Ne(cm-3)      --
#
#       T8
#
     0.0100  .1520E-07
     0.0110  .3424E-07
     0.0120  .8349E-07
     0.0132  .2221E-06
     0.0145  .6497E-06
     0.0159  .2111E-05
     0.0175  .7692E-05
     0.0192  .3180E-04
     0.0210  .9594E-04
     0.0231  .2184E-03
     0.0254  .5388E-03
     0.0278  .1451E-02
     0.0305  .3973E-02
     0.0335  .8394E-02
     0.0368  .1908E-01
     0.0404  .4571E-01
     0.0443  .9199E-01
     0.0486  .1982E+00
     0.0534  .3990E+00
     0.0586  .8068E+00
     0.0643  .1551E+01
     0.0705  .3012E+01
     0.0774  .5529E+01
     0.0850  .1005E+02
     0.0933  .1799E+02
     0.1024  .3157E+02
     0.1123  .5419E+02
     0.1233  .9144E+02
     0.1353  .1514E+03
     0.1485  .2472E+03
     0.1630  .3944E+03
     0.1789  .6233E+03
     0.1963  .9667E+03
     0.2154  .1437E+04
     0.2364  .2174E+04
     0.2595  .3273E+04
     0.2848  .4774E+04
     0.3126  .6859E+04
     0.3430  .9526E+04
     0.3765  .1366E+05
     0.4132  .1947E+05
     0.4535  .2649E+05
     0.4977  .3714E+05
     0.5462  .4932E+05
     0.5995  .6700E+05
     0.6579  .8751E+05
     0.7221  .1151E+06
     0.7925  .1497E+06
     0.8697  .1925E+06
     0.9545  .2458E+06
     1.0476  .3106E+06
     1.1498  .3897E+06
     1.2619  .4855E+06
     1.3849  .5998E+06
     1.5199  .7360E+06
     1.6681  .8935E+06
     1.8307  .1084E+07
     2.0092  .1300E+07
     2.2051  .1532E+07
     2.4201  .1833E+07
     2.6561  .2166E+07
     2.9151  .2557E+07
     3.1993  .2987E+07
     3.5112  .3496E+07
     3.8535  .4028E+07
     4.2292  .4642E+07
     4.6416  .5335E+07
     5.0941  .6092E+07
     5.5908  .6902E+07
     6.1359  .7862E+07
     6.7342  .8864E+07
     7.3907  .9963E+07
     8.1113  .1118E+08
     8.9022  .1252E+08
     9.7701  .1399E+08
    10.7227  .1546E+08
    11.7681  .1713E+08
    12.9155  .1897E+08
    14.1747  .2080E+08
    15.5568  .2286E+08
    17.0735  .2505E+08
    18.7382  .2733E+08
    20.5651  .2975E+08
    22.5702  .3218E+08
    24.7708  .3508E+08
    27.1859  .3779E+08
    29.8365  .4090E+08
    32.7455  .4377E+08
    35.9381  .4695E+08
    39.4421  .5025E+08
    43.2876  .5330E+08
    47.5081  .5670E+08
    52.1401  .6017E+08
    57.2237  .6357E+08
    62.8029  .6710E+08
    68.9261  .7074E+08
    75.6463  .7429E+08
    83.0218  .7802E+08
    91.1163  .8190E+08
   100.0000  .8600E+08
#
#             2 H   2 
#                 +      
#             0 OOOOO
#                 =      
#             0 OOOOO
#                 +      
#             1 HE  4 
#
#Qrad(MeV)      23.847
#Qnu (MeV)       0.000
#Type/Ne(cm-3)      --
#
#       T8
#
     0.0100  .1500E-14
     0.0110  .3378E-14
     0.0120  .8235E-14
     0.0132  .2189E-13
     0.0145  .6404E-13
     0.0159  .2080E-12
     0.0175  .7575E-12
     0.0192  .3130E-11
     0.0210  .9437E-11
     0.0231  .2147E-10
     0.0254  .5290E-10
     0.0278  .1423E-09
     0.0305  .3892E-09
     0.0335  .8222E-09
     0.0368  .1868E-08
     0.0404  .4474E-08
     0.0443  .8995E-08
     0.0486  .1936E-07
     0.0534  .3892E-07
     0.0586  .7857E-07
     0.0643  .1509E-06
     0.0705  .2928E-06
     0.0774  .5365E-06
     0.0850  .9758E-06
     0.0933  .1747E-05
     0.1024  .3054E-05
     0.1123  .5237E-05
     0.1233  .8805E-05
     0.1353  .1454E-04
     0.1485  .2369E-04
     0.1630  .3779E-04
     0.1789  .5963E-04
     0.1963  .9218E-04
     0.2154  .1367E-03
     0.2364  .2063E-03
     0.2595  .3097E-03
     0.2848  .4509E-03
     0.3126  .6465E-03
     0.3430  .8962E-03
     0.3765  .1283E-02
     0.4132  .1822E-02
     0.4535  .2463E-02
     0.4977  .3430E-02
     0.5462  .4542E-02
     0.5995  .6152E-02
     0.6579  .8005E-02
     0.7221  .1049E-01
     0.7925  .1362E-01
     0.8697  .1732E-01
     0.9545  .2197E-01
     1.0476  .2766E-01
     1.1498  .3455E-01
     1.2619  .4284E-01
     1.3849  .5269E-01
     1.5199  .6430E-01
     1.6681  .7760E-01
     1.8307  .9356E-01
     2.0092  .1118E+00
     2.2051  .1313E+00
     2.4201  .1565E+00
     2.6561  .1840E+00
     2.9151  .2163E+00
     3.1993  .2520E+00
     3.5112  .2944E+00
     3.8535  .3396E+00
     4.2292  .3916E+00
     4.6416  .4505E+00
     5.0941  .5166E+00
     5.5908  .5884E+00
     6.1359  .6747E+00
     6.7342  .7690E+00
     7.3907  .8769E+00
     8.1113  .1001E+01
     8.9022  .1141E+01
     9.7701  .1296E+01
    10.7227  .1469E+01
    11.7681  .1677E+01
    12.9155  .1922E+01
    14.1747  .2192E+01
    15.5568  .2514E+01
    17.0735  .2886E+01
    18.7382  .3310E+01
    20.5651  .3802E+01
    22.5702  .4349E+01
    24.7708  .5042E+01
    27.1859  .5785E+01
    29.8365  .6708E+01
    32.7455  .7716E+01
    35.9381  .8936E+01
    39.4421  .1035E+02
    43.2876  .1186E+02
    47.5081  .1369E+02
    52.1401  .1580E+02
    57.2237  .1816E+02
    62.8029  .2089E+02
    68.9261  .2401E+02
    75.6463  .2736E+02
    83.0218  .3121E+02
    91.1163  .3555E+02
   100.0000  .4020E+02
#
#             1 H   3 
#                 +      
#             1 DEUT 
#                 =      
#             1 NEUT 
#                 +      
#             1 HE  4 
#
#Qrad(MeV)      17.590
#Qnu (MeV)       0.000
#Type/Ne(cm-3)      --
#
#       T8
#
     0.0100  .1970E-06
     0.0110  .4690E-06
     0.0120  .1215E-05
     0.0132  .3455E-05
     0.0145  .1087E-04
     0.0159  .3828E-04
     0.0175  .1523E-03
     0.0192  .6937E-03
     0.0210  .2258E-02
     0.0231  .5446E-02
     0.0254  .1431E-01
     0.0278  .4132E-01
     0.0305  .1214E+00
     0.0335  .2706E+00
     0.0368  .6521E+00
     0.0404  .1663E+01
     0.0443  .3518E+01
     0.0486  .8007E+01
     0.0534  .1698E+02
     0.0586  .3622E+02
     0.0643  .7322E+02
     0.0705  .1496E+03
     0.0774  .2880E+03
     0.0850  .5496E+03
     0.0933  .1033E+04
     0.1024  .1902E+04
     0.1123  .3420E+04
     0.1233  .6026E+04
     0.1353  .1045E+05
     0.1485  .1782E+05
     0.1630  .2968E+05
     0.1789  .4919E+05
     0.1963  .7949E+05
     0.2154  .1232E+06
     0.2364  .1949E+06
     0.2595  .3072E+06
     0.2848  .4691E+06
     0.3126  .7053E+06
     0.3430  .1023E+07
     0.3765  .1539E+07
     0.4132  .2299E+07
     0.4535  .3260E+07
     0.4977  .4784E+07
     0.5462  .6624E+07
     0.5995  .9418E+07
     0.6579  .1277E+08
     0.7221  .1748E+08
     0.7925  .2363E+08
     0.8697  .3126E+08
     0.9545  .4095E+08
     1.0476  .5295E+08
     1.1498  .6746E+08
     1.2619  .8477E+08
     1.3849  .1053E+09
     1.5199  .1282E+09
     1.6681  .1534E+09
     1.8307  .1828E+09
     2.0092  .2133E+09
     2.2051  .2418E+09
     2.4201  .2774E+09
     2.6561  .3112E+09
     2.9151  .3458E+09
     3.1993  .3782E+09
     3.5112  .4119E+09
     3.8535  .4389E+09
     4.2292  .4645E+09
     4.6416  .4874E+09
     5.0941  .5064E+09
     5.5908  .5192E+09
     6.1359  .5315E+09
     6.7342  .5381E+09
     7.3907  .5414E+09
     8.1113  .5414E+09
     8.9022  .5375E+09
     9.7701  .5308E+09
    10.7227  .5210E+09
    11.7681  .5098E+09
    12.9155  .4972E+09
    14.1747  .4831E+09
    15.5568  .4678E+09
    17.0735  .4515E+09
    18.7382  .4349E+09
    20.5651  .4185E+09
    22.5702  .4030E+09
    24.7708  .3867E+09
    27.1859  .3716E+09
    29.8365  .3559E+09
    32.7455  .3422E+09
    35.9381  .3285E+09
    39.4421  .3160E+09
    43.2876  .3049E+09
    47.5081  .2935E+09
    52.1401  .2830E+09
    57.2237  .2739E+09
    62.8029  .2653E+09
    68.9261  .2574E+09
    75.6463  .2503E+09
    83.0218  .2436E+09
    91.1163  .2373E+09
   100.0000  .2320E+09
#
#             2 HE  3 
#                 +      
#             0 OOOOO
#                 =      
#             2 PROT 
#                 +      
#             1 HE  4 
#
#Qrad(MeV)      12.859
#Qnu (MeV)       0.000
#Type/Ne(cm-3)      --
#
#       T8
#
     0.0100  .9999E-99
     0.0110  .9999E-99
     0.0120  .9999E-99
     0.0132  .9999E-99
     0.0145  .9999E-99
     0.0159  .9999E-99
     0.0175  .9999E-99
     0.0192  .9999E-99
     0.0210  .9999E-99
     0.0231  .9999E-99
     0.0254  .9999E-99
     0.0278  .9999E-99
     0.0305  .4636E-24
     0.0335  .4443E-23
     0.0368  .5309E-22
     0.0404  .7448E-21
     0.0443  .6219E-20
     0.0486  .6388E-19
     0.0534  .5354E-18
     0.0586  .4554E-17
     0.0643  .3339E-16
     0.0705  .2528E-15
     0.0774  .1625E-14
     0.0850  .1016E-13
     0.0933  .6079E-13
     0.1024  .3433E-12
     0.1123  .1823E-11
     0.1233  .9111E-11
     0.1353  .4342E-10
     0.1485  .1980E-09
     0.1630  .8466E-09
     0.1789  .3531E-08
     0.1963  .1376E-07
     0.2154  .4759E-07
     0.2364  .1746E-06
     0.2595  .6318E-06
     0.2848  .2079E-05
     0.3126  .6534E-05
     0.3430  .1853E-04
     0.3765  .5818E-04
     0.4132  .1789E-03
     0.4535  .4740E-03
     0.4977  .1381E-02
     0.5462  .3423E-02
     0.5995  .9133E-02
     0.6579  .2154E-01
     0.7221  .5205E-01
     0.7925  .1215E+00
     0.8697  .2710E+00
     0.9545  .5939E+00
     1.0476  .1269E+01
     1.1498  .2644E+01
     1.2619  .5377E+01
     1.3849  .1069E+02
     1.5199  .2067E+02
     1.6681  .3873E+02
     1.8307  .7232E+02
     2.0092  .1312E+03
     2.2051  .2229E+03
     2.4201  .3988E+03
     2.6561  .6802E+03
     2.9151  .1152E+04
     3.1993  .1892E+04
     3.5112  .3126E+04
     3.8535  .4929E+04
     4.2292  .7714E+04
     4.6416  .1191E+05
     5.0941  .1808E+05
     5.5908  .2666E+05
     6.1359  .3991E+05
     6.7342  .5772E+05
     7.3907  .8293E+05
     8.1113  .1184E+06
     8.9022  .1651E+06
     9.7701  .2266E+06
    10.7227  .3023E+06
    11.7681  .4074E+06
    12.9155  .5486E+06
    14.1747  .7177E+06
    15.5568  .9395E+06
    17.0735  .1211E+07
    18.7382  .1544E+07
    20.5651  .1954E+07
    22.5702  .2418E+07
    24.7708  .3055E+07
    27.1859  .3728E+07
    29.8365  .4609E+07
    32.7455  .5562E+07
    35.9381  .6746E+07
    39.4421  .8117E+07
    43.2876  .9592E+07
    47.5081  .1144E+08
    52.1401  .1360E+08
    57.2237  .1601E+08
    62.8029  .1882E+08
    68.9261  .2207E+08
    75.6463  .2561E+08
    83.0218  .2966E+08
    91.1163  .3417E+08
   100.0000  .3910E+08
#
#             1 HE  4 
#                 +      
#             1 DEUT 
#                 =      
#             0 OOOOO
#                 +      
#             1 LI  6 
#
#Qrad(MeV)       1.475
#Qnu (MeV)       0.000
#Type/Ne(cm-3)      --
#
#       T8
#
     0.0100  .9999E-99
     0.0110  .9999E-99
     0.0120  .9999E-99
     0.0132  .9999E-99
     0.0145  .9999E-99
     0.0159  .9999E-99
     0.0175  .9999E-99
     0.0192  .9999E-99
     0.0210  .2617E-21
     0.0231  .1146E-20
     0.0254  .5793E-20
     0.0278  .3430E-19
     0.0305  .2092E-18
     0.0335  .8043E-18
     0.0368  .3526E-17
     0.0404  .1701E-16
     0.0443  .6022E-16
     0.0486  .2412E-15
     0.0534  .8546E-15
     0.0586  .3052E-14
     0.0643  .9972E-14
     0.0705  .3320E-13
     0.0774  .1005E-12
     0.0850  .2980E-12
     0.0933  .8604E-12
     0.1024  .2401E-11
     0.1123  .6456E-11
     0.1233  .1678E-10
     0.1353  .4218E-10
     0.1485  .1033E-09
     0.1630  .2447E-09
     0.1789  .5687E-09
     0.1963  .1268E-08
     0.2154  .2638E-08
     0.2364  .5685E-08
     0.2595  .1214E-07
     0.2848  .2448E-07
     0.3126  .4806E-07
     0.3430  .8883E-07
     0.3765  .1743E-06
     0.4132  .3378E-06
     0.4535  .5989E-06
     0.4977  .1123E-05
     0.5462  .1915E-05
     0.5995  .3411E-05
     0.6579  .5651E-05
     0.7221  .9496E-05
     0.7925  .1564E-04
     0.8697  .2504E-04
     0.9545  .3973E-04
     1.0476  .6211E-04
     1.1498  .9574E-04
     1.2619  .1453E-03
     1.3849  .2181E-03
     1.5199  .3216E-03
     1.6681  .4664E-03
     1.8307  .6743E-03
     2.0092  .9611E-03
     2.2051  .1316E-02
     2.4201  .1857E-02
     2.6561  .2556E-02
     2.9151  .3513E-02
     3.1993  .4733E-02
     3.5112  .6397E-02
     3.8535  .8426E-02
     4.2292  .1107E-01
     4.6416  .1447E-01
     5.0941  .1875E-01
     5.5908  .2395E-01
     6.1359  .3102E-01
     6.7342  .3989E-01
     7.3907  .5186E-01
     8.1113  .6838E-01
     8.9022  .9179E-01
     9.7701  .1253E+00
    10.7227  .1711E+00
    11.7681  .2385E+00
    12.9155  .3335E+00
    14.1747  .4551E+00
    15.5568  .6184E+00
