#             2 H   1 
#                 +      
#             0 OOOOO
#                 =      
#             0 OOOOO
#                 +      
#             1 HE  2 
#
#Qrad(MeV)       1.172
#Qnu (MeV)       0.270
#Type/Ne(cm-3)      --
#
#       T8
#
     0.0100  .9999E-99
     0.0110  .9999E-99
     0.0120  .9999E-99
     0.0132  .9999E-99
     0.0145  .9999E-99
     0.0159  .9999E-99
     0.0175  .9999E-99
     0.0192  .9999E-99
     0.0210  .7739E-24
     0.0231  .1472E-23
     0.0254  .2983E-23
     0.0278  .6474E-23
     0.0305  .1422E-22
     0.0335  .2547E-22
     0.0368  .4828E-22
     0.0404  .9537E-22
     0.0443  .1645E-21
     0.0486  .2993E-21
     0.0534  .5164E-21
     0.0586  .8943E-21
     0.0643  .1485E-20
     0.0705  .2481E-20
     0.0774  .3974E-20
     0.0850  .6323E-20
     0.0933  .9947E-20
     0.1024  .1539E-19
     0.1123  .2338E-19
     0.1233  .3503E-19
     0.1353  .5183E-19
     0.1485  .7576E-19
     0.1630  .1090E-18
     0.1789  .1550E-18
     0.1963  .2179E-18
     0.2154  .2962E-18
     0.2364  .4082E-18
     0.2595  .5604E-18
     0.2848  .7513E-18
     0.3126  .9961E-18
     0.3430  .1288E-17
     0.3765  .1706E-17
     0.4132  .2249E-17
     0.4535  .2855E-17
     0.4977  .3709E-17
     0.5462  .4634E-17
     0.5995  .5896E-17
     0.6579  .7280E-17
     0.7221  .9044E-17
     0.7925  .1115E-16
     0.8697  .1361E-16
     0.9545  .1657E-16
     1.0476  .2002E-16
     1.1498  .2405E-16
     1.2619  .2884E-16
     1.3849  .3438E-16
     1.5199  .4085E-16
     1.6681  .4820E-16
     1.8307  .5688E-16
     2.0092  .6687E-16
     2.2051  .7754E-16
     2.4201  .9122E-16
     2.6561  .1065E-15
     2.9151  .1245E-15
     3.1993  .1447E-15
     3.5112  .1688E-15
     3.8535  .1954E-15
     4.2292  .2267E-15
     4.6416  .2630E-15
     5.0941  .3042E-15
     5.5908  .3515E-15
     6.1359  .4094E-15
     6.7342  .4741E-15
     7.3907  .5502E-15
     8.1113  .6404E-15
     8.9022  .7441E-15
     9.7701  .8644E-15
    10.7227  .9979E-15
    11.7681  .1161E-14
    12.9155  .1357E-14
    14.1747  .1582E-14
    15.5568  .1851E-14
    17.0735  .2156E-14
    18.7382  .2512E-14
    20.5651  .2932E-14
    22.5702  .3408E-14
    24.7708  .4020E-14
    27.1859  .4674E-14
    29.8365  .5495E-14
    32.7455  .6398E-14
    35.9381  .7499E-14
    39.4421  .8777E-14
    43.2876  .1018E-13
    47.5081  .1193E-13
    52.1401  .1397E-13
    57.2237  .1628E-13
    62.8029  .1905E-13
    68.9261  .2236E-13
    75.6463  .2606E-13
    83.0218  .3042E-13
    91.1163  .3549E-13
   100.0000  .4150E-13
#
#             1 H   2 
#                 +      
#             1 PROT 
#                 =      
#             0 OOOOO
#                 +      
#             1 HE  3 
#
#Qrad(MeV)       5.494
#Qnu (MeV)       0.000
#Type/Ne(cm-3)      --
#
#       T8
#
     0.0100  .1300E-10
     0.0110  .2630E-10
     0.0120  .5700E-10
     0.0132  .1332E-09
     0.0145  .3381E-09
     0.0159  .9399E-09
     0.0175  .2886E-08
     0.0192  .9890E-08
     0.0210  .2578E-07
     0.0231  .5264E-07
     0.0254  .1152E-06
     0.0278  .2722E-06
     0.0305  .6522E-06
     0.0335  .1248E-05
     0.0368  .2545E-05
     0.0404  .5432E-05
     0.0443  .9987E-05
     0.0486  .1948E-04
     0.0534  .3576E-04
     0.0586  .6580E-04
     0.0643  .1160E-03
     0.0705  .2065E-03
     0.0774  .3504E-03
     0.0850  .5897E-03
     0.0933  .9806E-03
     0.1024  .1602E-02
     0.1123  .2565E-02
     0.1233  .4050E-02
     0.1353  .6293E-02
     0.1485  .9639E-02
     0.1630  .1456E-01
     0.1789  .2177E-01
     0.1963  .3200E-01
     0.2154  .4541E-01
     0.2364  .6547E-01
     0.2595  .9405E-01
     0.2848  .1316E+00
     0.3126  .1818E+00
     0.3430  .2440E+00
     0.3765  .3371E+00
     0.4132  .4632E+00
     0.4535  .6109E+00
     0.4977  .8278E+00
     0.5462  .1071E+01
     0.5995  .1416E+01
     0.6579  .1811E+01
     0.7221  .2333E+01
     0.7925  .2981E+01
     0.8697  .3759E+01
     0.9545  .4722E+01
     1.0476  .5896E+01
     1.1498  .7320E+01
     1.2619  .9028E+01
     1.3849  .1112E+02
     1.5199  .1356E+02
     1.6681  .1636E+02
     1.8307  .1973E+02
     2.0092  .2378E+02
     2.2051  .2806E+02
     2.4201  .3365E+02
     2.6561  .3986E+02
     2.9151  .4721E+02
     3.1993  .5548E+02
     3.5112  .6543E+02
     3.8535  .7624E+02
     4.2292  .8884E+02
     4.6416  .1032E+03
     5.0941  .1191E+03
     5.5908  .1371E+03
     6.1359  .1588E+03
     6.7342  .1818E+03
     7.3907  .2084E+03
     8.1113  .2393E+03
     8.9022  .2726E+03
     9.7701  .3096E+03
    10.7227  .3492E+03
    11.7681  .3963E+03
    12.9155  .4506E+03
    14.1747  .5082E+03
    15.5568  .5747E+03
    17.0735  .6478E+03
    18.7382  .7283E+03
    20.5651  .8186E+03
    22.5702  .9161E+03
    24.7708  .1037E+04
    27.1859  .1153E+04
    29.8365  .1291E+04
    32.7455  .1442E+04
    35.9381  .1617E+04
    39.4421  .1808E+04
    43.2876  .2002E+04
    47.5081  .2232E+04
    52.1401  .2490E+04
    57.2237  .2772E+04
    62.8029  .3087E+04
    68.9261  .3435E+04
    75.6463  .3806E+04
    83.0218  .4219E+04
    91.1163  .4668E+04
   100.0000  .5160E+04
#
#             2 H   2 
#                 +      
#             0 OOOOO
#                 =      
#             1 PROT 
#                 +      
#             1 H   3 
#
#Qrad(MeV)       4.033
#Qnu (MeV)       0.000
#Type/Ne(cm-3)      --
#
#       T8
#
     0.0100  .1410E-07
     0.0110  .3177E-07
     0.0120  .7746E-07
     0.0132  .2061E-06
     0.0145  .6030E-06
     0.0159  .1959E-05
     0.0175  .7141E-05
     0.0192  .2952E-04
     0.0210  .8905E-04
     0.0231  .2026E-03
     0.0254  .4993E-03
     0.0278  .1344E-02
     0.0305  .3675E-02
     0.0335  .7766E-02
     0.0368  .1765E-01
     0.0404  .4229E-01
     0.0443  .8510E-01
     0.0486  .1833E+00
     0.0534  .3688E+00
     0.0586  .7452E+00
     0.0643  .1433E+01
     0.0705  .2781E+01
     0.0774  .5101E+01
     0.0850  .9278E+01
     0.0933  .1661E+02
     0.1024  .2907E+02
     0.1123  .4990E+02
     0.1233  .8403E+02
     0.1353  .1390E+03
     0.1485  .2265E+03
     0.1630  .3606E+03
     0.1789  .5700E+03
     0.1963  .8816E+03
     0.2154  .1310E+04
     0.2364  .1983E+04
     0.2595  .2982E+04
     0.2848  .4342E+04
     0.3126  .6230E+04
     0.3430  .8655E+04
     0.3765  .1242E+05
     0.4132  .1767E+05
     0.4535  .2395E+05
     0.4977  .3342E+05
     0.5462  .4428E+05
     0.5995  .6002E+05
     0.6579  .7832E+05
     0.7221  .1028E+06
     0.7925  .1333E+06
     0.8697  .1708E+06
     0.9545  .2172E+06
     1.0476  .2736E+06
     1.1498  .3425E+06
     1.2619  .4254E+06
     1.3849  .5239E+06
     1.5199  .6401E+06
     1.6681  .7746E+06
     1.8307  .9356E+06
     2.0092  .1118E+07
     2.2051  .1313E+07
     2.4201  .1565E+07
     2.6561  .1840E+07
     2.9151  .2163E+07
     3.1993  .2513E+07
     3.5112  .2923E+07
     3.8535  .3356E+07
     4.2292  .3849E+07
     4.6416  .4400E+07
     5.0941  .5002E+07
     5.5908  .5637E+07
     6.1359  .6386E+07
     6.7342  .7171E+07
     7.3907  .8037E+07
     8.1113  .8990E+07
     8.9022  .9971E+07
     9.7701  .1109E+08
    10.7227  .1220E+08
    11.7681  .1345E+08
    12.9155  .1485E+08
    14.1747  .1628E+08
    15.5568  .1789E+08
    17.0735  .1959E+08
    18.7382  .2135E+08
    20.5651  .2321E+08
    22.5702  .2510E+08
    24.7708  .2735E+08
    27.1859  .2952E+08
    29.8365  .3204E+08
    32.7455  .3444E+08
    35.9381  .3710E+08
    39.4421  .3984E+08
    43.2876  .4251E+08
    47.5081  .4552E+08
    52.1401  .4866E+08
    57.2237  .5180E+08
    62.8029  .5509E+08
    68.9261  .5848E+08
    75.6463  .6182E+08
    83.0218  .6530E+08
    91.1163  .6881E+08
   100.0000  .7220E+08
#
#             2 H   2 
#                 +      
#             0 OOOOO
#                 =      
#             1 NEUT 
#                 +      
#             1 HE  3 
#
#Qrad(MeV)       3.270
#Qnu (MeV)       0.000
#Type/Ne(cm-3)      --
#
#       T8
#
     0.0100  .1390E-07
     0.0110  .3131E-07
     0.0120  .7632E-07
     0.0132  .2029E-06
     0.0145  .5936E-06
     0.0159  .1928E-05
     0.0175  .7024E-05
     0.0192  .2903E-04
     0.0210  .8757E-04
     0.0231  .1994E-03
     0.0254  .4920E-03
     0.0278  .1326E-02
     0.0305  .3629E-02
     0.0335  .7668E-02
     0.0368  .1743E-01
     0.0404  .4176E-01
     0.0443  .8417E-01
     0.0486  .1817E+00
     0.0534  .3654E+00
     0.0586  .7372E+00
     0.0643  .1417E+01
     0.0705  .2750E+01
     0.0774  .5050E+01
     0.0850  .9166E+01
     0.0933  .1640E+02
     0.1024  .2885E+02
     0.1123  .4958E+02
     0.1233  .8348E+02
     0.1353  .1380E+03
     0.1485  .2255E+03
     0.1630  .3597E+03
     0.1789  .5699E+03
     0.1963  .8816E+03
     0.2154  .1310E+04
     0.2364  .1983E+04
     0.2595  .2986E+04
     0.2848  .4364E+04
     0.3126  .6275E+04
     0.3430  .8715E+04
     0.3765  .1250E+05
     0.4132  .1781E+05
     0.4535  .2424E+05
     0.4977  .3400E+05
     0.5462  .4514E+05
     0.5995  .6132E+05
     0.6579  .8018E+05
     0.7221  .1055E+06
     0.7925  .1371E+06
     0.8697  .1761E+06
     0.9545  .2247E+06
     1.0476  .2844E+06
     1.1498  .3574E+06
     1.2619  .4447E+06
     1.3849  .5499E+06
     1.5199  .6753E+06
     1.6681  .8195E+06
     1.8307  .9948E+06
     2.0092  .1199E+07
     2.2051  .1410E+07
     2.4201  .1685E+07
     2.6561  .1989E+07
     2.9151  .2349E+07
     3.1993  .2745E+07
     3.5112  .3215E+07
     3.8535  .3707E+07
     4.2292  .4276E+07
     4.6416  .4919E+07
     5.0941  .5622E+07
     5.5908  .6370E+07
     6.1359  .7256E+07
     6.7342  .8188E+07
     7.3907  .9219E+07
     8.1113  .1037E+08
     8.9022  .1163E+08
     9.7701  .1294E+08
    10.7227  .1430E+08
    11.7681  .1589E+08
    12.9155  .1764E+08
    14.1747  .1937E+08
    15.5568  .2131E+08
    17.0735  .2338E+08
    18.7382  .2558E+08
    20.5651  .2792E+08
    22.5702  .3024E+08
    24.7708  .3300E+08
    27.1859  .3556E+08
    29.8365  .3851E+08
    32.7455  .4137E+08
    35.9381  .4453E+08
    39.4421  .4776E+08
    43.2876  .5080E+08
    47.5081  .5419E+08
    52.1401  .5773E+08
    57.2237  .6127E+08
    62.8029  .6498E+08
    68.9261  .6881E+08
    75.6463  .7261E+08
    83.0218  .7669E+08
    91.1163  .8106E+08
   100.0000  .8570E+08
#
#             2 H   2 
#                 +      
#             0 OOOOO
#                 =      
#             0 OOOOO
#                 +      
#             1 HE  4 
#
#Qrad(MeV)      23.847
#Qnu (MeV)       0.000
#Type/Ne(cm-3)      --
#
#       T8
#
     0.0100  .1340E-14
     0.0110  .3018E-14
     0.0120  .7359E-14
     0.0132  .1957E-13
     0.0145  .5726E-13
     0.0159  .1860E-12
     0.0175  .6777E-12
     0.0192  .2801E-11
     0.0210  .8447E-11
     0.0231  .1921E-10
     0.0254  .4732E-10
     0.0278  .1273E-09
     0.0305  .3480E-09
     0.0335  .7347E-09
     0.0368  .1668E-08
     0.0404  .3994E-08
     0.0443  .8037E-08
     0.0486  .1731E-07
     0.0534  .3481E-07
     0.0586  .7025E-07
     0.0643  .1348E-06
     0.0705  .2613E-06
     0.0774  .4791E-06
     0.0850  .8686E-06
     0.0933  .1552E-05
     0.1024  .2723E-05
     0.1123  .4664E-05
     0.1233  .7835E-05
     0.1353  .1295E-04
     0.1485  .2113E-04
     0.1630  .3355E-04
     0.1789  .5295E-04
     0.1963  .8172E-04
     0.2154  .1211E-03
     0.2364  .1826E-03
     0.2595  .2740E-03
     0.2848  .3985E-03
     0.3126  .5706E-03
     0.3430  .7898E-03
     0.3765  .1128E-02
     0.4132  .1601E-02
     0.4535  .2166E-02
     0.4977  .3018E-02
     0.5462  .3986E-02
     0.5995  .5384E-02
     0.6579  .6999E-02
     0.7221  .9164E-02
     0.7925  .1187E-01
     0.8697  .1512E-01
     0.9545  .1912E-01
     1.0476  .2396E-01
     1.1498  .2988E-01
     1.2619  .3692E-01
     1.3849  .4528E-01
     1.5199  .5513E-01
     1.6681  .6637E-01
     1.8307  .7982E-01
     2.0092  .9530E-01
     2.2051  .1114E+00
     2.4201  .1323E+00
     2.6561  .1550E+00
     2.9151  .1814E+00
     3.1993  .2106E+00
     3.5112  .2451E+00
     3.8535  .2817E+00
     4.2292  .3235E+00
     4.6416  .3708E+00
     5.0941  .4240E+00
     5.5908  .4812E+00
     6.1359  .5498E+00
     6.7342  .6252E+00
     7.3907  .7111E+00
     8.1113  .8095E+00
     8.9022  .9203E+00
     9.7701  .1045E+01
    10.7227  .1183E+01
    11.7681  .1350E+01
    12.9155  .1547E+01
    14.1747  .1768E+01
    15.5568  .2032E+01
    17.0735  .2336E+01
    18.7382  .2684E+01
    20.5651  .3089E+01
    22.5702  .3549E+01
    24.7708  .4134E+01
    27.1859  .4767E+01
    29.8365  .5557E+01
    32.7455  .6419E+01
    35.9381  .7464E+01
    39.4421  .8671E+01
    43.2876  .9988E+01
    47.5081  .1162E+02
    52.1401  .1348E+02
    57.2237  .1554E+02
    62.8029  .1796E+02
    68.9261  .2076E+02
    75.6463  .2384E+02
    83.0218  .2737E+02
    91.1163  .3130E+02
   100.0000  .3560E+02
#
#             1 H   3 
#                 +      
#             1 DEUT 
#                 =      
#             1 NEUT 
#                 +      
#             1 HE  4 
#
#Qrad(MeV)      17.590
#Qnu (MeV)       0.000
#Type/Ne(cm-3)      --
#
#       T8
#
     0.0100  .1900E-06
     0.0110  .4521E-06
     0.0120  .1170E-05
     0.0132  .3325E-05
     0.0145  .1046E-04
     0.0159  .3678E-04
     0.0175  .1462E-03
     0.0192  .6652E-03
     0.0210  .2165E-02
     0.0231  .5225E-02
     0.0254  .1374E-01
     0.0278  .3971E-01
     0.0305  .1168E+00
     0.0335  .2602E+00
     0.0368  .6270E+00
     0.0404  .1599E+01
     0.0443  .3382E+01
     0.0486  .7698E+01
     0.0534  .1634E+02
     0.0586  .3491E+02
     0.0643  .7062E+02
     0.0705  .1443E+03
     0.0774  .2778E+03
     0.0850  .5299E+03
     0.0933  .9957E+03
     0.1024  .1833E+04
     0.1123  .3295E+04
     0.1233  .5806E+04
     0.1353  .1006E+05
     0.1485  .1716E+05
     0.1630  .2868E+05
     0.1789  .4746E+05
     0.1963  .7676E+05
     0.2154  .1190E+06
     0.2364  .1882E+06
     0.2595  .2966E+06
     0.2848  .4529E+06
     0.3126  .6809E+06
     0.3430  .9878E+06
     0.3765  .1486E+07
     0.4132  .2221E+07
     0.4535  .3151E+07
     0.4977  .4627E+07
     0.5462  .6410E+07
     0.5995  .9119E+07
     0.6579  .1242E+08
     0.7221  .1702E+08
     0.7925  .2296E+08
     0.8697  .3030E+08
     0.9545  .3970E+08
     1.0476  .5137E+08
     1.1498  .6547E+08
     1.2619  .8228E+08
     1.3849  .1023E+09
     1.5199  .1242E+09
     1.6681  .1487E+09
     1.8307  .1768E+09
     2.0092  .2072E+09
     2.2051  .2347E+09
     2.4201  .2690E+09
     2.6561  .3016E+09
     2.9151  .3352E+09
     3.1993  .3661E+09
     3.5112  .3978E+09
     3.8535  .4235E+09
     4.2292  .4476E+09
     4.6416  .4689E+09
     5.0941  .4861E+09
     5.5908  .4975E+09
     6.1359  .5081E+09
     6.7342  .5129E+09
     7.3907  .5146E+09
     8.1113  .5132E+09
     8.9022  .5077E+09
     9.7701  .4993E+09
    10.7227  .4878E+09
    11.7681  .4749E+09
    12.9155  .4605E+09
    14.1747  .4443E+09
    15.5568  .4274E+09
    17.0735  .4098E+09
    18.7382  .3919E+09
    20.5651  .3739E+09
    22.5702  .3563E+09
    24.7708  .3379E+09
    27.1859  .3207E+09
    29.8365  .3031E+09
    32.7455  .2880E+09
    35.9381  .2729E+09
    39.4421  .2583E+09
    43.2876  .2457E+09
    47.5081  .2331E+09
    52.1401  .2213E+09
    57.2237  .2106E+09
    62.8029  .2007E+09
    68.9261  .1916E+09
    75.6463  .1831E+09
    83.0218  .1752E+09
    91.1163  .1682E+09
   100.0000  .1620E+09
#
#             2 HE  3 
#                 +      
#             0 OOOOO
#                 =      
#             2 PROT 
#                 +      
#             1 HE  4 
#
#Qrad(MeV)      12.859
#Qnu (MeV)       0.000
#Type/Ne(cm-3)      --
#
#       T8
#
     0.0100  .9999E-99
     0.0110  .9999E-99
     0.0120  .9999E-99
     0.0132  .9999E-99
     0.0145  .9999E-99
     0.0159  .9999E-99
     0.0175  .9999E-99
     0.0192  .9999E-99
     0.0210  .9999E-99
     0.0231  .9999E-99
     0.0254  .9999E-99
     0.0278  .9999E-99
     0.0305  .4380E-24
     0.0335  .4197E-23
     0.0368  .5014E-22
     0.0404  .7033E-21
     0.0443  .5882E-20
     0.0486  .6051E-19
     0.0534  .5070E-18
     0.0586  .4305E-17
     0.0643  .3156E-16
     0.0705  .2389E-15
     0.0774  .1535E-14
     0.0850  .9590E-14
     0.0933  .5736E-13
     0.1024  .3234E-12
     0.1123  .1712E-11
     0.1233  .8604E-11
     0.1353  .4100E-10
     0.1485  .1878E-09
     0.1630  .7995E-09
     0.1789  .3332E-08
     0.1963  .1300E-07
     0.2154  .4496E-07
     0.2364  .1648E-06
     0.2595  .5959E-06
     0.2848  .1961E-05
     0.3126  .6160E-05
     0.3430  .1744E-04
     0.3765  .5466E-04
     0.4132  .1680E-03
     0.4535  .4465E-03
     0.4977  .1305E-02
     0.5462  .3232E-02
     0.5995  .8618E-02
     0.6579  .2034E-01
     0.7221  .4921E-01
     0.7925  .1151E+00
     0.8697  .2559E+00
     0.9545  .5602E+00
     1.0476  .1196E+01
     1.1498  .2488E+01
     1.2619  .5064E+01
     1.3849  .1005E+02
     1.5199  .1947E+02
     1.6681  .3650E+02
     1.8307  .6815E+02
     2.0092  .1240E+03
     2.2051  .2102E+03
     2.4201  .3750E+03
     2.6561  .6394E+03
     2.9151  .1085E+04
     3.1993  .1782E+04
     3.5112  .2943E+04
     3.8535  .4630E+04
     4.2292  .7255E+04
     4.6416  .1123E+05
     5.0941  .1700E+05
     5.5908  .2502E+05
     6.1359  .3740E+05
     6.7342  .5408E+05
     7.3907  .7744E+05
     8.1113  .1100E+06
     8.9022  .1535E+06
     9.7701  .2116E+06
    10.7227  .2824E+06
    11.7681  .3801E+06
    12.9155  .5112E+06
    14.1747  .6680E+06
    15.5568  .8738E+06
    17.0735  .1127E+07
    18.7382  .1432E+07
    20.5651  .1806E+07
    22.5702  .2237E+07
    24.7708  .2830E+07
    27.1859  .3452E+07
    29.8365  .4264E+07
    32.7455  .5150E+07
    35.9381  .6253E+07
    39.4421  .7525E+07
    43.2876  .8899E+07
    47.5081  .1063E+08
    52.1401  .1264E+08
    57.2237  .1490E+08
    62.8029  .1755E+08
    68.9261  .2061E+08
    75.6463  .2394E+08
    83.0218  .2777E+08
    91.1163  .3205E+08
   100.0000  .3680E+08
#
#             1 HE  4 
#                 +      
#             1 DEUT 
#                 =      
#             0 OOOOO
#                 +      
#             1 LI  6 
#
#Qrad(MeV)       1.475
#Qnu (MeV)       0.000
#Type/Ne(cm-3)      --
#
#       T8
#
     0.0100  .9999E-99
     0.0110  .9999E-99
     0.0120  .9999E-99
     0.0132  .9999E-99
     0.0145  .9999E-99
     0.0159  .9999E-99
     0.0175  .9999E-99
     0.0192  .9999E-99
     0.0210  .4536E-22
     0.0231  .1990E-21
     0.0254  .1009E-20
     0.0278  .5990E-20
     0.0305  .3664E-19
     0.0335  .1415E-18
     0.0368  .6230E-18
     0.0404  .3019E-17
     0.0443  .1072E-16
     0.0486  .4311E-16
     0.0534  .1533E-15
     0.0586  .5492E-15
     0.0643  .1803E-14
     0.0705  .6030E-14
     0.0774  .1829E-13
     0.0850  .5451E-13
     0.0933  .1585E-12
     0.1024  .4453E-12
     0.1123  .1203E-11
     0.1233  .3145E-11
     0.1353  .7966E-11
     0.1485  .1972E-10
     0.1630  .4692E-10
     0.1789  .1101E-09
     0.1963  .2480E-09
     0.2154  .5206E-09
     0.2364  .1133E-08
     0.2595  .2444E-08
     0.2848  .4986E-08
     0.3126  .9903E-08
     0.3430  .1851E-07
     0.3765  .3678E-07
     0.4132  .7228E-07
     0.4535  .1302E-06
     0.4977  .2485E-06
     0.5462  .4304E-06
     0.5995  .7795E-06
     0.6579  .1313E-05
     0.7221  .2249E-05
     0.7925  .3784E-05
     0.8697  .6190E-05
     0.9545  .1003E-04
     1.0476  .1606E-04
     1.1498  .2541E-04
     1.2619  .3960E-04
     1.3849  .6107E-04
     1.5199  .9280E-04
     1.6681  .1387E-03
     1.8307  .2065E-03
     2.0092  .3050E-03
     2.2051  .4316E-03
     2.4201  .6319E-03
     2.6561  .9027E-03
     2.9151  .1290E-02
     3.1993  .1810E-02
     3.5112  .2557E-02
     3.8535  .3516E-02
     4.2292  .4844E-02
     4.6416  .6651E-02
     5.0941  .9063E-02
     5.5908  .1225E-01
     6.1359  .1685E-01
     6.7342  .2299E-01
     7.3907  .3177E-01
     8.1113  .4451E-01
     8.9022  .6286E-01
     9.7701  .8943E-01
    10.7227  .1250E+00
    11.7681  .1776E+00
    12.9155  .2516E+00
    14.1747  .3439E+00
    15.5568  .4673E+00
